time,x,y,z,vx,vy,vz,phi,theta,psi,p,q,r
0.01,0.00014925706845292426,0.00010375204013233553,0.002457697648837404,0.040921319353398995,0.03515664489083297,0.48991642896712223,-0.14206435691212935,0.10805808508656208,-0.007409697815272884,-28.268057243170535,21.686989395432477,0.05716715947689307
0.02,0.0011170308921461805,0.0010882487022111362,0.009274701789667463,0.16885053502927985,0.18294826245100781,0.8640672977636386,-0.3992267735790507,0.30992095098462585,-0.03230653709715606,-22.34823847436685,18.126976315991463,6.0992864750548454
0.03,0.0039013848038095184,0.004255193796508875,0.019753036491674914,0.39956619150598327,0.4673013049696483,1.2167601235344923,-0.6032042638090707,0.4896100604763717,-0.04311829339983258,-17.674126517082872,14.183684457851427,9.440042052044934
0.04,0.009501516259540653,0.011024909573219702,0.03365533775333313,0.7269064701057744,0.9006465651725779,1.546223458043249,-0.762325784101017,0.6500359525093645,-0.043287260226419426,-14.121748141576948,10.682440634216311,10.78395648423361
0.05,0.018882467441925316,0.0230550121270053,0.050762248053892456,1.1508465291813261,1.5176979826629882,1.8564330299034364,-0.8863531827666966,0.7929090283911905,-0.03608188933954547,-11.601236610622692,7.93207282588911,10.923045547244266
0.060000000000000005,0.0330171767083052,0.04243967918558832,0.07088298940227551,1.6727628914886106,2.3708045561459685,2.148210795564536,-0.9862340606090159,0.9203797549269153,-0.02413265704811826,-10.147961332586123,5.9391299119599665,10.528608072219809
0.07,0.05289153469653811,0.07193115863845975,0.09388248649690763,2.2921127847646496,3.536666266214886,2.4408360618939766,-1.0471751619161542,0.9574284490889297,-0.005534923605423889,-4.998669007079797,-3.557294746444139,-3.185575380736463
0.08,0.0789232800327938,0.11394787227646483,0.11989922257329456,2.9025090056880614,4.870412137974002,2.7669690617829144,-1.0572869613096076,0.8992487404590437,0.01966846258106514,-1.0917106091633904,-4.808883065238033,-5.456451884992434
0.09,0.11046031559341707,0.1686658444588716,0.1491104928701906,3.3972530570826303,6.07368486328572,3.082246384424201,-1.045698468820765,0.8354006530563233,0.043725543909920804,-0.241599890465106,-4.2333594484963175,-4.090230550608947
0.09999999999999999,0.1464804933848075,0.2347417611932095,0.18141077567148126,3.801339521753838,7.141276982948307,3.383335522578829,-1.0292892599685337,0.7872632858759094,0.06763529338779203,0.07392372203811998,-3.496922748316044,-2.5280727818594846
0.10999999999999999,0.1862095526715756,0.3109526438967341,0.2166554511312603,4.140659077244121,8.100326599254807,3.6699344344839475,-1.0099631457972509,0.7539017405497698,0.09143195433259162,0.4874266929141339,-2.905414510734385,-1.3701795684165732
0.11999999999999998,0.22910016944785563,0.39633201837515647,0.25471289807594905,4.434955403566775,8.974602285228853,3.9453644073952563,-0.9865191540883025,0.7306244417215885,0.11491252599383384,1.0325594452217381,-2.5239429262221114,-0.6707042628514298
0.12999999999999998,0.27474617644654353,0.4900250805472164,0.2954491480990533,4.692785234332632,9.76276096766699,4.205361410569987,-0.9588384809111709,0.7144794569368387,0.1379470106782473,1.4612636777233734,-2.1476319555942647,-0.054287083605612185
0.13999999999999999,0.3228303152429648,0.5912131192638006,0.3387127388257369,4.9233808366950305,10.473389082456015,4.4505398561818765,-0.9274202611121357,0.7039781587179729,0.16052007156119238,1.8845923340487523,-1.856553178748066,0.3640430131364498
0.15,0.37311329017314643,0.6991495606260084,0.3843545030378566,5.1331570990961835,11.112266851555354,4.680781457958917,-0.8922734686286912,0.6972122621790073,0.18257602373873044,2.302185377689609,-1.6343940487923372,0.6358199225149643
0.16,0.4254114575050014,0.8131419808508336,0.43222501856104045,5.326890897029822,11.684409186435786,4.896145871646775,-0.8530325953816079,0.6925999394759971,0.2040437814212919,2.7971001795847856,-1.4838635811639902,0.7755416977746276
0.17,0.47958292176737605,0.9325439150842434,0.4821762131289461,5.508186217908659,12.193988778269434,5.096807980516046,-0.80929921681046,0.6889828295247048,0.2248381939070469,3.2997057313642304,-1.3710543500524244,0.8488456534411988
0.18000000000000002,0.5355172319006569,1.0567492283904096,0.5340618689615483,5.679733770095682,12.644916583152234,5.282920090656999,-0.7609593868553278,0.6856288515870753,0.24489634301686164,3.8227333390132068,-1.2953582785652253,0.8686396391092104
0.19000000000000003,0.5931275090670545,1.1851913187164294,0.5877379201106671,5.843571719757047,13.041179754830967,5.454762559124309,-0.7078175242471412,0.6818677647985203,0.26414495711264124,4.373214772297712,-1.2634374968800326,0.8411160411152117
0.20000000000000004,0.6523443450828351,1.3173429052844874,0.6430634140450848,6.001162863940528,13.386650422148431,5.612679335096461,-0.649633223529241,0.6770121640429204,0.2825011899057761,4.956044559612725,-1.2867120474867118,0.7713247229655618
0.21000000000000005,0.713110425072576,1.4527145079595092,0.6999010881796907,6.1534667924125,13.685013093206125,5.757065910754267,-0.5861284096379468,0.6703093846042282,0.29987498553253716,5.576226364070657,-1.381287656779901,0.6653014496182386
0.22000000000000006,0.7753757785071554,1.5908522844002297,0.758117804002615,6.300995594531949,13.93970810584664,5.88835221620901,-0.516975870546898,0.6609103243257428,0.3161708007967821,6.240416856702931,-1.5659363243571685,0.5334034611467623
0.23000000000000007,0.8390935813458111,1.7313354295477008,0.817584819771589,6.4438700626942556,14.153900603961302,6.006985969266883,-0.44177486507974206,0.6478654713764557,0.3312889217935206,6.957898571962687,-1.8589413515609228,0.39327606198796694
0.24000000000000007,0.9042165664168595,1.8737733840052304,0.8781778982790612,6.581885905060182,14.330473310416366,6.1134152438168075,-0.3600146412871858,0.6301375525379771,0.3451258629181196,7.741925003310552,-2.276057445162676,0.27094548546455255
0.25000000000000006,0.9706941587086293,2.0178030452410463,0.9397772468272305,6.714591990334797,14.472033774646814,6.208072209205074,-0.2710231965727796,0.6065980558548668,0.3575713902790591,8.611459072436453,-2.8318560935671666,0.20028742031703378
0.26000000000000006,1.0384704169357777,2.163086032383889,1.0022673032542986,6.841371507175473,14.5809167821684,6.291358999976872,-0.1738988571871542,0.5759622074640801,0.36849737075283223,9.593457811590596,-3.5457967131573946,0.2231956560579602
0.2700000000000001,1.107482726877707,2.309305843439429,1.0655363856851203,6.961508081538367,14.659158854654128,6.36363461856712,-0.0674176058819067,0.5365995816044573,0.37773017019235183,10.726580052929913,-4.45563245302208,0.39412649949613887
0.2800000000000001,1.177660975686826,2.456164501640818,1.1294762059737131,7.074210308579928,14.708418683788771,6.425199506518429,0.050108609631651424,0.4860745269890952,0.3849874903771005,12.069276484347904,-5.650008181218323,0.7962063892618243
0.2900000000000001,1.2489265652983303,2.6033779445474483,1.1939812063002033,7.1785399116596516,14.729796993372018,6.47627187405955,0.18110768260820573,0.4198954254238135,0.3897240341860141,13.72247551075071,-7.373946059599871,1.5972800937168428
0.3000000000000001,1.3211895070286854,2.7506685368536634,1.2589476179032844,7.273029675287476,14.723402387677039,6.516946730602793,0.32953821520220694,0.32665705774323345,0.3905952564095766,15.927512269256678,-10.560526586454488,3.3190143323870753
0.3100000000000001,1.3943391902090212,2.8977538203272566,1.3242719292731064,7.354982049990152,14.688686055521078,6.547177765610779,0.48132743175949894,0.1944901846227544,0.3863932212236563,14.729131440760282,-13.914558709551041,6.479380981712453
0.3200000000000001,1.4682340342080513,3.0443558235351804,1.3898513557459604,7.421330649174714,14.627227882453111,6.567213111220215,0.6190701353853867,0.024088587208262374,0.37897037433602015,13.094107889043311,-15.763064570443367,10.176459858231487
0.3300000000000001,1.542709740308802,3.1902114026625257,1.4555839050014974,7.4709083624745425,14.539964145404676,6.576888754610505,0.7427963432276554,-0.1764693267890204,0.37051166824208503,11.63084939787641,-16.338347402792635,13.827110160171737
0.34000000000000014,1.6176019109922237,3.3350507864733316,1.5213669267162113,7.505086325719778,14.42467361680416,6.576454346510105,0.8527939861932319,-0.38097189534147446,0.3633155617654934,9.93048204741196,-13.204818461038824,14.481481190238558
0.35000000000000014,1.6927773596208362,3.478567838736341,1.5871051066797062,7.528638463306584,14.276257064468515,6.567505036450785,0.9470843415243632,-0.558419183862254,0.36059675706863137,8.581189867695667,-9.291080996061025,12.990410212071286
0.36000000000000015,1.768159925501032,3.6204014353420093,1.652718487409683,7.547670020801937,14.088591152124332,6.551403867689981,1.0288532467799387,-0.7032253210655723,0.36234864463399447,7.910650490624685,-6.462309820358284,11.32267809324809
0.37000000000000016,1.843733460507423,3.7601235200903287,1.718141489523213,7.567139964722405,13.854629469494956,6.530077613151769,1.078971793280791,-0.8202076364350351,0.3675658122455945,2.7915582580877043,-4.474763684226445,9.4217495169402
0.38000000000000017,1.9194957695894812,3.89729928569869,1.7833357667542074,7.584478815242546,13.580032818416877,6.507213712800553,1.0796565479682867,-0.9064278714392706,0.3754172392898758,-1.4954408159485162,-2.7683887381787553,6.287203301134788
0.3900000000000002,1.9953958085661652,4.0316697339761305,1.8482850733087353,7.593911973608755,13.293972540686301,6.48215007561261,1.0521306939156496,-0.9677946559688834,0.3838650669220918,-2.656681822890151,-2.2834738499058576,4.945658773261968
0.4000000000000002,2.071342340231317,4.1632171915556615,1.9129613886484633,7.593741018560726,13.015525274330749,6.452717101697829,1.0206488305656964,-1.0207746168285696,0.3921568255375948,-2.2502766921381423,-2.333036503283374,4.631883246221825
0.4100000000000002,2.14724289787297,4.292012600683304,1.977321641246016,7.5849539021123435,12.743538623948826,6.418734777108828,0.9933632253034488,-1.0719622403049602,0.4004846104454481,-1.7652865950338075,-2.4319029833586145,4.464814902719429
0.4200000000000002,2.223015763369509,4.418092914158487,2.0413223514574796,7.568356164468372,12.47250359422899,6.380693086951138,0.9684848694302686,-1.1204255448813722,0.4088387295174832,-1.7265820389268567,-2.322619318471912,4.0149623462669775
0.4300000000000002,2.298583790896351,4.541452476750122,2.1049253062524382,7.544002710236662,12.199441723591345,6.339231641969122,0.9425047732230178,-1.162893476473179,0.4170742583532009,-1.9755473982930787,-2.016100658543043,3.3185432101097745
0.4400000000000002,2.3738692874791543,4.66207535049907,2.1680981801969166,7.511816228155891,11.925245286357574,6.294809785974609,0.9142164318607358,-1.1978011235704227,0.425058143398234,-2.2088159869646753,-1.675725789121244,2.637394864169154
0.45000000000000023,2.4487953520245314,4.779964511404281,2.2308124551008475,7.4721296975794385,11.65276044933948,6.247617365807055,0.884873002883733,-1.2264488637115167,0.4327914610549282,-2.2134419950527833,-1.4595868592293835,2.187751666817158
0.46000000000000024,2.5232899793365724,4.895146764910487,2.293041160952993,7.42558842963005,11.38390027605496,6.197755858350995,0.8556847174751563,-1.2506559468528442,0.44038287765208384,-2.190210106211946,-1.2802126031548737,1.8335132851032692
0.47000000000000025,2.5972875002504723,5.007662160970782,2.3547587256024913,7.372777160010597,11.119414184250148,6.145432719365133,0.826989283668233,-1.2714136906266966,0.4478950665184679,-2.1187779892778957,-1.143419247311363,1.5672966880936894
0.48000000000000026,2.670728239571148,5.117556810359187,2.415941389315978,7.314308645959975,10.859765400223376,6.090804376940654,0.7990787909667669,-1.2895446329367193,0.4553860622636946,-2.0283987629420426,-1.0360093159209978,1.3617258822322016
0.49000000000000027,2.7435582745768916,5.224879318678352,2.4765669931604672,7.250710228345562,10.604994785627566,6.034044002548603,0.7720025712972944,-1.3055392950705245,0.462891649612207,-1.9418784021275577,-0.9380934506433583,1.187237923515979
0.5000000000000002,2.815728669272622,5.329678190628393,2.5366151014673974,7.182447236874135,10.355044878209336,5.975330063281357,0.7456824755898237,-1.319631261213087,0.4704229939887806,-1.866182210848918,-0.8414557181662866,1.0313939204760547
0.5100000000000002,2.887195051273203,5.432001792067844,2.5960670177809706,7.109967550257866,10.109945965012495,5.9148317448833545,0.7200357325841185,-1.3320080331849609,0.47798469016263534,-1.7962753971428678,-0.7522511266045357,0.8974591970640945
0.5200000000000002,2.9579174619321993,5.531899088454577,2.654905661456731,7.033708134795139,9.869786782153142,5.852698835863875,0.6950215704137774,-1.342928806971854,0.4855895042474601,-1.7270257888028528,-0.6784886813333479,0.789577137391787
0.5300000000000002,3.027860055051539,5.629419526649317,2.713115389740305,6.9540552437266285,9.634574782229924,5.789067258513315,0.6706136084622705,-1.352665208365141,0.49325477074776064,-1.6596368235716006,-0.6178260111328068,0.7022750644796819
0.5400000000000003,3.0969904711300806,5.724611983366352,2.7706818962717605,6.871319426695281,9.404189664561816,5.724070940429329,0.6467676653330506,-1.3613858504245093,0.5009882956232916,-1.5981876786670972,-0.56019619164031,0.6248748081974302
0.5500000000000003,3.165279227952512,5.817523977338223,2.827592202210715,6.785765509981741,9.178481180695433,5.65784454997545,0.6234295347037548,-1.3691512955440595,0.5087843121698775,-1.5431671363849055,-0.5009391376134806,0.552793951469856
0.5600000000000003,3.232699483160812,5.908201863768807,2.883834638844692,6.6976576477421,8.957366700872035,5.590514915247506,0.6005619614374144,-1.3760214914024707,0.5166354922490868,-1.4909499512466546,-0.4457907962138133,0.48979241210058583
0.5700000000000003,3.2992270097810623,5.99669134226156,2.9393987501233108,6.607255867689884,8.740797054179481,5.522195198416953,0.5781499071121361,-1.3821139704852548,0.5245431794703497,-1.4389764483827883,-0.39940579488659933,0.43809864707589086
0.5800000000000003,3.3648400159675167,6.083037359845223,2.994275428588029,6.514795592766196,8.528675831564266,5.453092990512162,0.5563066643341101,-1.3860933933493969,0.5323838199201002,-1.3889683189010265,-0.11463145433142946,0.23569709676230277
0.5900000000000003,3.4295239208111217,6.167292874011584,3.0484579957960687,6.421494835278172,8.322694169111085,5.3834795503545685,0.5354665787314649,-1.3867826385031603,0.5399448388325696,-1.2924982425581282,0.1413463190033123,0.07340116657277099
0.6000000000000003,3.4932805425157807,6.249533791586167,3.10194161743917,6.329427173821992,8.125733109946307,5.313390778346005,0.5163095416193245,-1.3846283369889214,0.5473320963181374,-1.0866661989376103,0.3681911970019255,-0.05395756606631655
0.6100000000000003,3.556130793757253,6.329858759354377,3.1547219859587208,6.240329151600266,7.939463264122387,5.242894737781643,0.49947105015279947,-1.3800448400645744,0.554646159785794,-0.844060289112648,0.5663069000110812,-0.1518768716964375
0.6200000000000003,3.6181113007375196,6.408379014346031,3.206795376150942,6.155581511420577,7.764746707772575,5.172042395247923,0.4849941186341308,-1.3734102871342493,0.5619728478739182,-0.6134188104344357,0.7367318125834549,-0.22569337796264682
0.6300000000000003,3.6792702684571577,6.485211124673839,3.2581585304274134,6.0761071508867195,7.601795926499619,5.100879118750835,0.4726039840226033,-1.3650651706968893,0.5693718141168579,-0.4146910205211539,0.881123342813746,-0.27990487757944177
0.6400000000000003,3.7396630191239817,6.560471485667856,3.3088086079262817,6.002404994997084,7.450366214542131,5.02944561844416,0.4619523542005906,-1.355313257845908,0.5768787168871066,-0.24735672386815752,1.0015445477954605,-0.3180957423302396
0.6500000000000004,3.7993481588324594,6.634272496466826,3.358743149195031,5.934636496395794,7.30990193710469,4.957780013855586,0.45276201668672905,-1.34442367028809,0.5845125095331105,-0.10100899001905292,1.100234764125923,-0.3431475563147956
0.6600000000000004,3.8583847081113736,6.706720022071867,3.4079600572774624,5.8727288897601335,7.179649120978379,4.885918865605744,0.44491886536222347,-1.3326334158466246,0.5922826953013239,0.044706329857716415,1.1794320240223441,-0.35748372694046326
0.6700000000000004,3.916830230151606,6.777911809784448,3.4564575881457382,5.8164665694988305,7.058736831381888,4.8138983119960965,0.4383923584141081,-1.320149820729473,0.6001929506678882,0.18502065888966687,1.2413076992953698,-0.36333472336901323
0.6800000000000004,3.974739705189415,6.8479366884535375,3.5042343530854363,5.76555020698199,6.946251708137525,4.741755105225526,0.43318981224151476,-1.3071527201991282,0.6082412965111529,0.3311770615949053,1.2879370631069638,-0.36254383320340244
0.6900000000000004,4.032164952286031,6.916874381439018,3.5512893223406374,5.719650350566759,6.841284270634198,4.669525424102783,0.4294512824738933,-1.2937971149590797,0.6164244059158961,0.4982369087693742,1.3212454593992102,-0.3568057058258545
0.7000000000000004,4.089154525405456,6.984795637574242,3.5976218204493513,5.678445575232347,6.742948163656701,4.597244834162219,0.42741168969047305,-1.2802153723742205,0.6247384235176301,0.6900408185703636,1.3430150989160345,-0.3477745105476939
0.7100000000000004,4.145753895679079,7.051762544636268,3.6432315207142363,5.641639724669864,6.650398518929547,4.524948502844924,0.42724581185468,-1.2665189097862732,0.6331765873496467,0.8902035890001266,1.3549395107635305,-0.3369504931166029
0.7200000000000004,4.202005695311195,7.1178290801670965,3.6881184407542853,5.608955697198386,6.562861652193685,4.452671540132868,0.4287995075783514,-1.2527994131832545,0.6417250423732817,1.0480316421168978,1.3587080917116,-0.32541893373810765
0.7300000000000004,4.257949729419012,7.183042091104343,3.73228294517185,5.580085859737398,6.479695974159869,4.380451756904332,0.43071868442427896,-1.239128649941579,0.6503512158490452,0.9707997939739033,1.3562588593164189,-0.3133942774217479
0.7400000000000004,4.3136221927161005,7.2474432722406394,3.775725762961916,5.554600761119229,6.400519827289892,4.308327350339366,0.4305607568870689,-1.2255591099154806,0.6590014262350942,0.6295922797375444,1.3496816483529286,-0.2983084438198726
0.7500000000000004,4.369054444709097,7.311072071466026,3.818447904031171,5.5319757072741504,6.325257167299734,4.236314812598078,0.4264357624260466,-1.2121302347238732,0.667636001646588,0.16658256851896275,1.340637176534677,-0.27717141189643474
0.7600000000000005,4.42427266633696,7.373968343858045,3.860450313669632,5.511734710312084,6.25404649411904,4.1643787760589275,0.41856271432125103,-1.198875083089262,0.6762546084935042,-0.13117309186695503,1.3297452871983468,-0.24890701846241695
0.7700000000000005,4.47929935167182,7.436173817575181,3.901733159176055,5.49364101943708,6.187110958557699,4.0923939013429464,0.40890119912918427,-1.185838780457531,0.684891932702999,-0.19597645360045407,1.3140939523447988,-0.21503312154453547
0.7800000000000005,4.534156219605483,7.4977331127293745,3.94229464355329,5.477768284571048,6.124809524011962,4.020091999555861,0.39913395560637993,-1.1731461801929628,0.6935790231639921,-0.1515353902106587,1.2805126253577719,-0.1735184210631043
0.7900000000000005,4.588867406025488,7.558696358542668,3.982129075516895,5.464516434588838,6.067889524042648,3.946962555055084,0.39051058932844207,-1.1609655017037033,0.7023322441945792,0.036524412236190684,1.2327343414492122,-0.12828944664424943
0.8000000000000005,4.643463409095726,7.619124057995288,4.021223806711844,5.4548254086774515,6.01764112782031,3.872112674602058,0.39051036355540897,-1.1493863839983331,0.7112180374041834,1.5885237201493552,1.1820165868307135,-0.08653971651848713
0.8100000000000005,4.697988277494166,7.679089503231534,4.059555542569764,5.450601196722463,5.9752693001713855,3.7942786193301523,0.42300510070708647,-1.1384525438578221,0.7204669036562953,6.592081838293412,1.1298598939179625,-0.06525538727539992
