time,x,y,z,vx,vy,vz,phi,theta,psi,p,q,r
0.01,8.754801866529946e-05,0.0001475127452486695,0.002132406239336923,0.02994398498762425,0.04756421112060601,0.42371330746175756,-0.20842612086223797,0.14167047573579716,-0.011587368809594538,-41.393647328977714,28.468139525135857,0.647111702980704
0.02,0.0008810646563552309,0.0013599145981001658,0.007764061112774199,0.1430756567766245,0.21794024658830824,0.6887831670539412,-0.5781429143414196,0.4066290525271907,-0.041614044462966626,-31.609668832598523,21.33995159598604,14.375734472399694
0.03,0.003421881011050708,0.005260865685870611,0.016059755397147102,0.3744179946234181,0.5769361802864899,0.9511762494389056,-0.7920282533965429,0.6462194415373231,-0.04537320596481443,-10.689566723472726,16.13250775951142,15.957870763550613
0.04,0.0089312763535528,0.013641484341280402,0.026920132619327096,0.7376599039965752,1.1021578969584214,1.2066072128391674,-0.8347562943858136,0.8526270430061915,-0.045984839126744836,2.3287917132315794,12.311682641974945,14.25682076146938
0.05,0.018788092890282253,0.027782359187576974,0.04029943223360258,1.2452801320660125,1.7199668217706365,1.4633274328879613,-0.7777585759556918,0.9754879736562275,-0.042002091260553445,8.697304114442588,4.159921799090821,3.9830543099911946
0.060000000000000005,0.03415614535056036,0.047990241370717196,0.05624963047760353,1.8365077021719274,2.310476170303666,1.7311358405479729,-0.6836410838085111,0.9858489075353796,-0.044199127735856596,10.507986023857034,-2.660920905360041,-2.6668809951607626
0.07,0.05527452142393291,0.0734409846949264,0.07483668020630965,2.3912937871639075,2.7682265503701777,1.9940485105441927,-0.58267252580618,0.9484287941735654,-0.049342995938905135,10.534474494738369,-3.0142547241272113,-2.2284505273286346
0.08,0.0816247580028569,0.10282922593415866,0.09597676856348608,2.881525894502197,3.099376809942283,2.2393487335155986,-0.48262569745772765,0.922683243077603,-0.05171641135376157,9.866926886135335,-1.2288423195016143,-0.6584614648093658
0.09,0.11267972935258705,0.135079834157001,0.11950467661982582,3.3315959581712824,3.3420749589505707,2.4694125746351445,-0.3880341422424646,0.9121006526109855,-0.05134464319917524,8.993942920336153,-0.6961778793348251,-0.20047794758176357
0.09999999999999999,0.14811354456331421,0.1694295408593863,0.14528586639128974,3.7561709902908897,3.5204052157462207,2.689370545464979,-0.3012871080741823,0.8992466594890465,-0.04955165692840111,8.072469177469342,-1.8052924796655065,-0.4422920941191044
0.10999999999999999,0.18761556301400426,0.20528496365037743,0.17319065744792997,4.144066999407728,3.644357354433424,2.894092440082549,-0.22077787631741502,0.876740039236407,-0.04665576300796716,7.580212491551446,-2.6364151161919294,-0.35388756539401006
0.11999999999999998,0.23080084951101776,0.24215543584973306,0.20306698079365004,4.492022961879664,3.7243066324237257,3.083564007772505,-0.14379058652188376,0.8464905164653058,-0.04208546203147516,7.124611873832003,-3.417214446249944,-0.1456957018264282
0.12999999999999998,0.2772445745147445,0.2796433170622209,0.2347436100088029,4.795300443075229,3.7686778620391923,3.2538521386329102,-0.0697026451812338,0.8113253737560926,-0.03569390114662421,6.753853177210252,-3.6599059789588315,0.2601660736123733
0.13999999999999999,0.32651876874207586,0.3174346760706978,0.2680329033744245,5.057928256885602,3.7856807412353817,3.4057038938918596,0.0023585770255563077,0.7739555650428878,-0.02713565119519433,6.442971590542018,-3.842161788546456,0.6931633910954904
0.15,0.3782360806194984,0.35528838549752095,0.30275146447031553,5.283816522657172,3.781701766765507,3.5393757846923326,0.07288921142215538,0.7338331423999997,-0.01650217427706556,6.211582840422365,-4.109731319090916,1.1626697432912412
0.16,0.43204755069341577,0.39302000976782275,0.338720293420306,5.476690443570679,3.7617070061583244,3.6554868419186763,0.1424600377714364,0.6899325945857214,-0.0038765285857529554,6.05785878530283,-4.404624970358065,1.686265113317364
0.17,0.48763966616590315,0.430489027369372,0.3757667592171432,5.639916914571975,3.7295297230238402,3.7546563596784974,0.21170075283011658,0.6416644984580451,0.010651661092565734,6.001112418684335,-4.685080027404563,2.2675145479736853
0.18000000000000002,0.5447320203644874,0.4675882534155185,0.41372488324378975,5.776745156012022,3.6879886570458837,3.8375698651415635,0.2820709201471728,0.5887479811594291,0.02696355311070915,6.19626782546021,-4.9146332776551445,2.904006712405589
0.19000000000000003,0.6030761701369252,0.50423393396673,0.45243584131101805,5.890304311588598,3.6390441716920696,3.9049933339238967,0.3529664612233827,0.5303387480951252,0.04492316176414718,6.08384703010201,-5.219068035391175,3.64039630938397
0.20000000000000004,0.6624535065686898,0.540361270569914,0.4917490584393734,5.983427224993816,3.5845760938592037,3.957834325905283,0.4220150765818366,0.46515557430005816,0.06441153245582161,5.873848308648804,-5.541645721508459,4.463051040189681
0.21000000000000005,0.7226720980665013,0.5759235437902109,0.5315228641663042,6.0586211259940965,3.52626930946964,3.9969472616794404,0.4880932396540437,0.3923669560059092,0.08531681818116042,5.613574681790466,-5.847053754733437,5.3579176664625985
0.22000000000000006,0.7835641483436145,0.6108891418900324,0.5716242866088159,6.1182048972972005,3.4654539773820936,4.02321269998629,0.5502337274616981,0.3114106847542722,0.10755318598168973,5.292617005621041,-6.122588594853481,6.307703895142494
0.23000000000000007,0.8449841184103885,0.6452381771581608,0.6119291606944783,6.16430715853572,3.4031453568134244,4.03751095476523,0.6074551836187547,0.221947753725672,0.13105645604601343,4.924336003543367,-6.357854982196502,7.284275805701865
0.24000000000000007,0.9068068191302241,0.678959541250835,0.6523221011538921,6.198865701451338,3.3400909669889978,4.040721455153076,0.6584772843770764,0.1240142881707188,0.15579338475991827,4.439786502379059,-6.535812375759945,8.240236756227166
0.25000000000000006,0.9689254915607053,0.7120487019616045,0.6926964716483365,6.223625905329435,3.276855822033469,4.033712229817452,0.7022675962852681,0.018265338071692297,0.18175854200379685,3.9589599017152537,-6.632576908501659,9.099441288044256
0.26000000000000006,1.0312499632852432,0.744505836736342,0.7329542235811027,6.240153374428456,3.213832857467931,4.017346374871862,0.7368923004703316,-0.09382641278407439,0.20897494017792498,3.179021738237563,-6.632339026130921,9.777374393570364
0.2700000000000001,1.093704656242545,0.7763353413455241,0.7730060339941544,6.2497875576521675,3.1514786522136182,3.9925143573084676,0.7598737754155449,-0.21004196655612445,0.2374916514058658,2.2845933611683535,-6.556751205025511,10.180965147665237
0.2800000000000001,1.156226213971726,0.8075465818509012,0.8127711108847989,6.253623852126861,3.0903118315277873,3.960011640317365,0.7702149014341174,-0.3279340222336577,0.26728466005518164,1.3685832594646024,-6.468498035572449,10.303447613422632
0.2900000000000001,1.2187610751036504,0.8381536407204685,0.8521764089885507,6.2525195763213315,3.0307507568344496,3.920575122532503,0.7678348654263142,-0.4454674025427482,0.29828209142212614,0.4931670443611881,-6.426280953629643,10.18021323950436
0.3000000000000001,1.2812630279266066,0.868173924661899,0.8911559309599983,6.247074733363907,2.973041581483088,3.874860274133235,0.7528315555532982,-0.5624634084422214,0.33041127568328055,-0.3883110964958806,-6.64659750394631,10.033333524459035
0.3100000000000001,1.3436904249866801,0.89762599632038,0.9296499606031013,6.237641771327667,2.917180083727908,3.82347471556344,0.726127722109033,-0.6755754003659236,0.3634674296807343,-1.125704968287535,-6.4325537974668245,9.199109089341823
0.3200000000000001,1.406005366429793,0.9265278042988974,0.9676049500829254,6.224645051917924,2.863059998443191,3.7670718217432753,0.6893821049737092,-0.7783382219468775,0.3969274156728679,-1.7913641568918277,-5.923882360373858,7.970600169095999
0.3300000000000001,1.4681746494320282,0.9548971405015604,1.0049735832601399,6.20857402408417,2.810754081223626,3.7062418315281414,0.6442822701076376,-0.8677808972233692,0.43023730435715296,-2.3593590300355194,-5.319617639329989,6.660817830583819
0.34000000000000014,1.5301699124434467,0.9827530355898035,1.041714193647721,6.189899785177898,2.7604302752519385,3.641510803012728,0.5930295031674314,-0.9438076764451566,0.4628659767651741,-2.7690289808588453,-4.720491135581789,5.444074157334126
0.35000000000000014,1.5919672870020267,1.0101160531311124,1.0777901171446427,6.169048508689772,2.712221981701352,3.573339310723666,0.5379985354004103,-1.0084363405402272,0.49443681192800143,-3.015965520511586,-4.287078892701557,4.473033009484613
0.36000000000000015,1.6535466898555482,1.0370072881239694,1.1131691017071723,6.1463577088381225,2.6661079607742457,3.502160015303153,0.4812258836945374,-1.0625688330458543,0.5245667623904656,-3.164311944205707,-3.6537649945597863,3.496246385536265
0.37000000000000016,1.7148915441213857,1.0634477807727112,1.147823218430807,6.12219414344523,2.6221021937674283,3.4284147189442344,0.4244576297727906,-1.1060923521107067,0.5527963859790416,-3.2046744825974947,-3.0100914602341,2.689538147729349
0.38000000000000017,1.7759893976880208,1.0894593904600802,1.1817285577362375,6.097010075163432,2.5803480777924235,3.352446814986406,0.36905220981264864,-1.1410659178243099,0.5791475274729991,-3.1281488520456686,-2.5545111956161453,2.117712165357907
0.3900000000000002,1.8368318935274894,1.1150646110051612,1.2148644596646296,6.071169157248567,2.5408285223853944,3.2745534158784935,0.3159887962186134,-1.1702861354701999,0.6038112544060708,-2.9729003213200436,-2.277851370870725,1.7197875527374682
0.4000000000000002,1.8974135307472224,1.1402847060245676,1.2472131274128753,6.044879734474255,2.5033209190275976,3.1950192671434587,0.265748753505994,-1.1952237587747074,0.6269510135783125,-2.7928898731040643,-1.9948399543756312,1.3889171674940644
0.4100000000000002,1.957730553223196,1.1651385051134788,1.2787596417064715,6.01828949737775,2.467570428382583,3.114164379633563,0.21874000966165563,-1.2137573703802673,0.6483829953000776,-2.6085542704462314,-1.2321110116424774,0.9937033294237316
0.4200000000000002,2.0177820602243113,1.1896441410148466,1.3094922579022124,5.991821670032447,2.433689601142718,3.032298471594003,0.17540412453359183,-1.2242233010407613,0.6679394872563749,-2.3875401322232603,-0.5548318165519969,0.7404030059514493
0.4300000000000002,2.0775721813991215,1.2138217379581466,1.339401928021524,5.96605233493335,2.4019575592986877,2.9496221497549855,0.13564080438108492,-1.228157122911637,0.6860649063961104,-2.1533356629054743,-0.0318547217350752,0.5932277036492093
0.4400000000000002,2.137109715776941,1.2376929530274263,1.3684816529573327,5.941337042294902,2.3724047706925404,2.8663423550205716,0.09916599353011163,-1.2271757554015164,0.7030610896706261,-1.9405536359867028,0.3610515445677824,0.5209538747448831
0.45000000000000023,2.1964061727585276,1.2612790507286664,1.39672635491074,5.917861673628334,2.3449256248358474,2.7826390679787774,0.06533245387127737,-1.2225861637307898,0.7192446118308827,-1.7811591684805337,0.6439295373677688,0.49837512077044804
0.46000000000000024,2.255474078249041,1.2845997185483176,1.4241326843917903,5.895643887355403,2.319312397820626,2.6986805922605157,0.03331578355667594,-1.2154486458955234,0.7348849646722853,-1.6856702050236776,0.8348201543781936,0.508440159363643
0.47000000000000025,2.3143255019142277,1.307672325230573,1.4506989031396573,5.874575986063247,2.295309681634817,2.6146231900137655,0.002291526352601936,-1.2066184711329637,0.7502081656846382,-1.6507730168246582,0.9498988786162822,0.5392346777872065
0.48000000000000026,2.3729709774503847,1.3305116008664661,1.4764247842498743,5.854460022156594,2.272644930849661,2.53061475427673,-0.02843759795943709,-1.196777016490032,0.7653972671686373,-1.6618750541185519,1.0036098262718853,0.582500442577366
0.49000000000000027,2.4314187510949354,1.353129559976022,1.50131154450287,5.835038064319842,2.2510468564340633,2.4467975667039124,-0.059349568915947164,-1.1864568713038224,0.7805983526449038,-1.696318725126844,1.0087441624209827,0.6322996236464753
0.5000000000000002,2.48967426268743,1.3755355278658816,1.5253618198388572,5.816008299994692,2.230247906987857,2.363314254461555,-0.09063759923644947,-1.1760635118598923,0.7959258312673476,-1.7255135838044702,0.9765539043543529,0.6841765420435668
0.5100000000000002,2.5477397417728627,1.3977361481122772,1.5485797068450422,5.79703192147197,2.209978080000418,2.280315145709652,-0.1221660287341717,-1.1658948669619438,0.8114666746694765,-1.7172144257596502,0.9168910432942194,0.7346580231752422
0.5200000000000002,2.605613925664333,1.4197353683193807,1.570970836071725,5.777750613116732,2.1899667943503274,2.197957353234283,-0.15346945112862642,-1.1561594030103746,0.8272831331265682,-1.6421433677507835,0.8383417513056255,0.7810200548141004
0.5300000000000002,2.6632936580338584,1.4415357570228473,1.5925414823131836,5.758144044487006,2.1702083045389626,2.116212481855554,-0.18421243378823676,-1.1469930284036867,0.8434117771338489,-1.560117028252437,0.7480069769991406,0.8212590613536576
0.5400000000000003,2.7207693818761394,1.4631351421531698,1.613301053100766,5.7369551595514645,2.1497580703773917,2.035738105175849,-0.21292946246578914,-1.138473947085327,0.8598723364647265,-1.188381738107199,0.6525699920383017,0.8547842100533267
0.5500000000000003,2.778024021579944,1.4845254424072791,1.6332629181695328,5.7139416915924555,2.128371618997447,1.956668559549615,-0.23778850515589386,-1.1306362752945363,0.8766697454800988,-0.7387507482417954,0.5580216229926684,0.8793800757403809
0.5600000000000003,2.835036421293257,1.5056947035742811,1.6524428068477726,5.688511158729919,2.1055432103055027,1.8793390638247456,-0.2611820913553377,-1.1234841428953233,0.8937666454217117,-0.8516810426311023,0.46562000843800183,0.8961062986330635
0.5700000000000003,2.8916424528558373,1.5265331908482815,1.67093930195576,5.63279738812126,2.0624954725777815,1.8205281470706627,-0.2842037910015234,-1.075019614633171,0.9092512945496709,-1.0231419225182838,8.480418185767817,3.0793528464808038
0.5800000000000003,2.947758656562599,1.5469966731893565,1.6888288361625847,5.590247095151207,2.0307858376600723,1.757651074699467,-0.34275489131440423,-1.0366464311136578,0.923893452216307,-8.10754097970249,-1.581410661318758,0.5439249769463554
0.5900000000000003,3.0034217916330888,1.5671545475718682,1.7060983199848239,5.541625835645301,2.0017325874587937,1.6957904775324197,-0.46170473567879344,-1.0532603899131565,0.9438151413304687,-12.237358173777913,-2.2421838613353335,-0.0020350292685709093
0.6000000000000003,3.0585392783968626,1.5870384667160793,1.7227529862468125,5.481073462537274,1.9763104332521315,1.6345053963539389,-0.5943586403327973,-1.0708128206825192,0.9644271157996224,-10.692964744679749,-1.803106477978052,-0.02892000196594803
0.6100000000000003,3.112978965952769,1.6066896023036343,1.7387989276468896,5.406282703717907,1.9550766437362987,1.5740502735227304,-0.7023289110124322,-1.0836152257412517,0.985370571813079,-7.212751713261216,-1.4399753878473907,0.06063801736423667
0.6200000000000003,3.166598485201974,1.6261468860620152,1.7542453087854113,5.31727023155478,1.9371772760469208,1.5147088819380898,-0.775763444956828,-1.0924699772940922,1.006423411973174,-3.7453736174575134,-1.1882030878265313,0.1859233136802813
0.6300000000000003,3.2192639523358353,1.645435040233017,1.7691042490532287,5.21564308077407,1.9208151306390135,1.4567235458112364,-0.819066571463856,-1.0983091001559064,1.027433805196468,-1.1795960544004322,-1.0049934902528106,0.3180404422913839
0.6400000000000003,3.2708622225893715,1.6645596084397423,1.7833901870684072,5.103958531407559,1.9041274048104835,1.400316289055836,-0.8415472975289771,-1.0970879549025072,1.0480591846502618,0.35652353840566464,-0.21907598135992667,1.1290576639498107
0.6500000000000004,3.3213123318724898,1.6835120050999133,1.7971200794377078,4.986110864917359,1.8862682435932225,1.3457684339064193,-0.853647980820725,-1.0819795034825226,1.0678835055118372,0.7366725288925617,0.8445183829794728,2.349728188748912
0.6600000000000004,3.370576944252379,1.7022825110885116,1.8103113993434867,4.866845747352776,1.867778179874535,1.2925723892191436,-0.8670850227036899,-1.0677112851771955,1.0873707533111179,0.00503062281229838,-0.3905529596624623,1.023728391770143
0.6700000000000004,3.418632417199718,1.7208645072874762,1.82297552361279,4.74420911139748,1.8485924920236771,1.2401173375660968,-0.8857497793956282,-1.0655688075028749,1.1069875915661547,-0.3035923984948676,-0.7912309588783051,0.5186129214641845
0.6800000000000004,3.4654230431881548,1.7392483621709727,1.8351231922499787,4.613953334006842,1.8281490297139174,1.1895149188952725,-0.8990617310895712,-1.0490316043175527,1.1256489573661148,0.8892345811789273,1.4409248911130341,3.20585224100657
0.6900000000000004,3.5109065012649707,1.7574260799478891,1.8467740155213388,4.482887126970304,1.8073616218898592,1.1410707379442682,-0.9044898996003494,-1.013477600079001,1.143083041015664,1.0155223660859074,1.5647351008626804,3.4830266350722607
0.7000000000000004,3.5551013163108975,1.7753984142629435,1.8579441716120582,4.356111065128456,1.7870781534793998,1.0930470840924658,-0.9164590516874919,-0.996863336271221,1.1605879765894225,-0.4503210525429271,-1.010169785538056,0.2931760513608599
0.7100000000000004,3.5980067157696594,1.7931641472429296,1.8686384334536719,4.224926079673655,1.766045059597446,1.04567211402535,-0.9330228185551968,-0.9930698277881324,1.1779279226538655,0.0481925759451165,-0.04205860633761105,1.4491426616221843
0.7200000000000004,3.6395680492753364,1.8107139738265672,1.8788685204361886,4.087471312954948,1.7438759407937263,1.0006906442952541,-0.9375396060891047,-0.9623050369465477,1.1940218353318348,1.7062367520679462,2.254225442104762,4.569384392596646
0.7300000000000004,3.679778415697196,1.828044155014847,1.8886554167122311,3.954811327806956,1.7221271255663357,0.9572278523015731,-0.9364271507002447,-0.9194538141809685,1.2094712713543292,1.0201125040620425,1.3498082017785844,3.4144207453961872
0.7400000000000004,3.718687964687265,1.8451602033569372,1.8980100930852226,3.8271231121603204,1.701063188967667,0.9137612838521355,-0.9466394566828908,-0.9039298387046184,1.2248979603052566,-0.6214331102859061,-1.050942916407955,0.2086061469560998
0.7500000000000004,3.75629655729642,1.8620614168162435,1.9069350722257479,3.694581677124455,1.679157860074087,0.8711894547412519,-0.9588716631502685,-0.8941345373219644,1.2399800744791014,0.5372393096114969,0.6549846013091354,2.4750629478187203
0.7600000000000005,3.792563851782423,1.8787404236447465,1.9154426818259793,3.5590609529395882,1.6566190340078744,0.8307784443164924,-0.9576132525509278,-0.8570973963747202,1.2540941154674399,1.8723315957575124,2.1321010866791243,4.6247650273969745
0.7700000000000005,3.827505996465128,1.8951978249721118,1.9235501697941015,3.4295782438869984,1.6348577983725407,0.7912114499709224,-0.9541390808102748,-0.8160874528548229,1.2679176271326076,0.8828648457791833,1.0804065249867842,3.1434138511561667
0.7800000000000005,3.861170138644578,1.9114402555308425,1.9312656917332964,3.3033148393235923,1.6136404593010019,0.7520434622184011,-0.9598603173173511,-0.7936647121503636,1.2814667739919443,-0.07108144160461505,-0.034496450223280295,1.6046645955769137
0.7900000000000005,3.893508294782974,1.9274593770907757,1.9386211205049668,3.164577192973417,1.5901591384438005,0.7195992878946648,-0.9525588620689764,-0.7533361548319797,1.2946066312641002,3.3439517574858524,3.170928112156682,6.0685021455496955
0.8000000000000005,3.92453093426526,1.9432542819709449,1.9456433103935655,3.0403070558863914,1.568849097639248,0.6855689483702361,-0.9378718344727259,-0.7005054414715369,1.3071648468880193,1.281201312951072,1.477480077308704,3.594751458711595
0.8100000000000005,3.954327452360627,1.958839189048325,1.952334193957579,2.91909903094443,1.5481803247874966,0.6528203780110262,-0.9396516123008626,-0.6743269516770145,1.319384611118546,-0.08126497911531105,0.08879459086600106,1.745418369281086
