time,x,y,z,vx,vy,vz,phi,theta,psi,p,q,r
0.01,-7.106952511231643e-05,7.266500834687672e-05,0.0006714087981805247,-0.009689929294359386,0.020278515007708,0.13363826988658453,-0.13872252388900244,0.1080718026090956,-0.0075160267862633195,-27.598103270296036,21.692158876674494,0.0
0.02,-6.470167240654984e-05,0.0005679324437957118,0.002495404155018951,0.017839739369791156,0.08761384820537216,0.22725952655723144,-0.392554513656842,0.30988068553477033,-0.032770478302133726,-22.328459775931144,18.178051211594337,5.865592758273404
0.03,0.00046637122486954067,0.0020547574435865845,0.005275574764466022,0.09369010971867392,0.21665867157156596,0.32257804610037866,-0.5811031787515167,0.48958719117080407,-0.0441392258782866,-14.57545039320631,14.412334997386102,9.211787335818853
0.04,0.002002165484084049,0.0051512669791402895,0.009003941312667149,0.2166367686837362,0.40763834282654854,0.41672322178466265,-0.7038229245277098,0.6319127617749597,-0.04237527319528756,-10.076465301873128,8.25922086003128,8.053052034794622
0.05,0.004980765532264767,0.010486274109911436,0.01368090912866932,0.37990628097680135,0.6633057275793353,0.5134387732122772,-0.7839222937560499,0.722909602460844,-0.030956023015677327,-7.31717518944993,4.002690469034491,5.551363924078316
0.060000000000000005,0.009734916550377979,0.018678072302600438,0.01933388583799217,0.5703082148036288,0.9779242590389549,0.6137173562358543,-0.8316874214696901,0.7714039963941911,-0.01578336463218808,-4.27678177047067,1.1404912750087184,2.983953934520733
0.07,0.0164609211977515,0.03022944834976652,0.026001153712034614,0.7738275741035785,1.3340201852821039,0.7181828685319313,-0.8525485551209728,0.7903204222402379,0.00021817114962718528,-2.146827022991811,-0.2997470877563575,1.3464072746625935
0.08,0.025228042547117812,0.04544134067309137,0.03371896809103433,0.9786018287949264,1.7091119096305876,0.8251349986388133,-0.8560507429714395,0.7928161825287477,0.015585677780016852,-0.7427819268071036,-0.9967549908579981,0.44544135985528965
0.09,0.03604133031997069,0.06446202690862066,0.04253461762982857,1.1833051550246698,2.095120859616392,0.9385652129573459,-0.8478655617301304,0.7872268553732058,0.03004578339060649,0.32350954368794294,-1.2708427817378547,0.05165718052462859
0.09999999999999999,0.04885041019817475,0.08728452736400996,0.05247381542082571,1.3780235618014294,2.4690142079602637,1.0503151663546983,-0.8317956482836628,0.7775015571772845,0.04360662442587279,0.9769942724269021,-1.460309020247792,-0.21683805976714404
0.10999999999999999,0.06355684257464912,0.11376638195086318,0.0635241549708354,1.562942372463649,2.826712929551519,1.161033427300282,-0.8109836350683829,0.7653866920730829,0.0562877761227399,1.4164588982475799,-1.5217115751227994,-0.3193329384496279
0.11999999999999998,0.08006269449923269,0.14373050956161498,0.07567373095857173,1.7380411429804918,3.165283607064663,1.270261010525294,-0.7869547533810486,0.7523316565013841,0.06811008889802772,1.761916034584923,-1.5290540312883791,-0.35602797282823334
0.12999999999999998,0.09827302423286316,0.17698037334235014,0.08890706209752444,1.9039449242993283,3.4837242344604036,1.3778146141442227,-0.7604960160970482,0.7389391490429387,0.07905088521563959,2.045015836582948,-1.5103669176146595,-0.3665803299673063
0.13999999999999999,0.11809955234252453,0.21331323125457435,0.10320655201913866,2.061363346950973,3.781778806587282,1.4834844822403606,-0.7321294539002962,0.7254394727953722,0.0890652327533505,2.289125443924007,-1.4833322600698662,-0.3735676928244853
0.15,0.13946108596865492,0.2525261454474041,0.11855256764046072,2.2110065816380438,4.0596534501750785,1.587090484377867,-0.702208629555406,0.7118613172551544,0.09810027339180373,2.5050865322148126,-1.4574712863475257,-0.38683254660200134
0.16,0.16228318596130337,0.2944195264217764,0.1349237292479776,2.353516973985935,4.317806360898336,1.6884721806700635,-0.6710037026714798,0.6981419364444535,0.10610906941693284,2.697592865204423,-1.4382416270548697,-0.40961690208187335
0.17,0.18649738813705,0.3387991576357604,0.15229714754048598,2.4894487354472004,4.556851277736131,1.7874926641496283,-0.6387434124608165,0.6841835911291887,0.1130603107160226,2.8679297661767063,-1.4286965596306147,-0.4415414716185242
0.18000000000000002,0.2120402956990561,0.3854774689773311,0.17064866855691355,2.6192628060637637,4.777502425619322,1.88403843385187,-0.6056353666154075,0.6698826858039646,0.1189436924782629,3.0161400232109847,-1.4304926568346812,-0.48050080809023954
0.19000000000000003,0.23885266564182656,0.4342743719304433,0.18995310949626065,2.7433309571856452,4.980541060212131,1.9780188431911674,-0.5718726492574524,0.6551434042511024,0.12377124941125892,3.142129252895753,-1.4443238098112205,-0.5236845652425319
0.20000000000000004,0.26687855921223597,0.48501780977854225,0.21018448209588533,2.861944499267158,5.166791535579088,2.0693646380022175,-0.5376343758433421,0.6398838475971158,0.127575677004308,3.246160881215111,-1.4701262237213446,-0.5681465117530998
0.21000000000000005,0.2960645929329703,0.5375440953677365,0.23131619825698221,2.9753255890521104,5.337102593420899,2.158026048247512,-0.5030841911753178,0.624038559294833,0.1304068248391,3.3289968117971367,-1.50720873086465,-0.6111223432656976
0.22000000000000006,0.32635928777219353,0.5916981672948944,0.2533212039456608,3.0836314106004754,5.492367467027589,2.243950379738488,-0.46881204932485837,0.6076689246799297,0.13233269746090082,3.3026456219070157,-1.5349887778965015,-0.6397707644671401
0.23000000000000007,0.357712591286028,0.6473345823433887,0.276172041685978,3.1870018113147456,5.633575738250753,2.327134295005583,-0.43440309213968076,0.5905953135410478,0.13342229915195708,3.4557777414445625,-1.616584539422172,-0.6885284323024974
0.24000000000000007,0.390075625482391,0.7043162917472119,0.299841452829857,3.285528400062377,5.761437091797084,2.4076070689606968,-0.39995170985014805,0.5727903694038063,0.1337395875574451,3.3993835937426082,-1.6608195431039665,-0.7055022299653406
0.25000000000000006,0.42340019743992696,0.7625140374993074,0.3243021584563802,3.379258328170517,5.876801871528435,2.485334178550952,-0.3655944787617499,0.5542832050687392,0.13337477113824892,3.510643675513607,-1.7501629666773473,-0.7340477132334544
0.26000000000000006,0.457638678218943,0.8218062807743648,0.3495269966884546,3.468260924740462,5.980345811632786,2.560381188950504,-0.3310118992168957,0.5349947999789214,0.1323884858306336,3.5078245701988156,-1.8185259134645846,-0.7408461860525447
0.2700000000000001,0.4927439359374248,0.8820782567081915,0.3754891222663609,3.552563621731365,6.072780387996204,2.632731182577063,-0.29676561750666125,0.5150895254677614,0.1308676806451034,3.4936920334389288,-1.886883764132058,-0.7383125201764527
0.2800000000000001,0.5286692699815793,0.9432225920906341,0.4021617641994092,3.6322288674729544,6.154852553408098,2.702425663357273,-0.2629035390685383,0.4946032046380786,0.12888141618338553,3.470711611101815,-1.9550071312433435,-0.7271211349467924
0.2900000000000001,0.5653685903190305,1.0051391500895976,0.42951854048665455,3.7073168682932525,6.2272617584824,2.769501131860633,-0.22945830736801498,0.4735712957382621,0.12649319772239215,3.4405274162551978,-2.021473718695104,-0.707597512131852
0.3000000000000001,0.6027964407793647,1.0677345782657155,0.45753346857010696,3.777894722839212,6.290664749274514,2.8340009888519666,-0.19645296734871603,0.4520370206179343,0.12376110072385904,3.404442127426219,-2.084620041158399,-0.6801465781480845
0.3100000000000001,0.6409080740402651,1.1309218771014045,0.4861810189931937,3.844037488384941,6.345674805124659,2.895972429885505,-0.16390283758904384,0.43005158396615334,0.1207378583685711,3.363696381366595,-2.1430901410806174,-0.6453747297050487
0.3200000000000001,0.6796595392317015,1.1946199683798107,0.5154361517316239,3.905829606591849,6.392862399316183,2.9554661437486622,-0.13181594070759864,0.4076720951649796,0.11747121458317046,3.3194514885164983,-2.1957660759625393,-0.6039824132483714
0.3300000000000001,0.7190077780451214,1.2587532705537843,0.5452743475304473,3.9633652106435333,6.432755995237106,3.0125355960686444,-0.1001950170087964,0.38496001061753204,0.11400487820345166,3.272441936131112,-2.241766555812205,-0.5566636474063602
0.34000000000000014,0.758910719509325,1.3232512932961522,0.5756716322887913,4.016747367709138,6.465846686603499,3.0672362533905293,-0.06909490606907365,0.36197974849371967,0.11038077947130133,3.212170064707631,-2.2803963127094504,-0.5039796919384705
0.35000000000000014,0.7993273587419288,1.388048342475396,0.6066045950992897,4.066085827684037,6.492605509621444,3.119625371959238,-0.03868177688322161,0.33879738364817114,0.10664288589219038,3.12726471031452,-2.3111073335969547,-0.4464669319941694
0.36000000000000015,0.8402178151363949,1.4530833941214039,0.6380504084697439,4.111495956155732,6.513493609949653,3.1697629389073225,-0.009069980413425355,0.3154793156553824,0.10283974215407722,3.039746481534488,-2.3335289507027808,-0.38456196992545627
0.37000000000000016,0.8815433963428831,1.5182998969397978,0.669986852740754,4.153100303906016,6.528940626922565,3.2177107998425716,0.01975425415579428,0.29209129023848857,0.09902514743882851,2.9535944573463007,-2.347413448319659,-0.3180758446424658
0.38000000000000017,0.9232666713907752,1.583645404355309,0.7023923295203375,4.191028350274373,6.539337332742735,3.2635312726234535,0.047821471451905004,0.2686975523401001,0.09525430156984954,2.868868982336209,-2.3526383552367904,-0.2478654244011677
0.3900000000000002,0.9653515357711173,1.6490711947708385,0.7352458656692769,4.225415568941702,6.545037972486452,3.3072869966051157,0.07515633379222922,0.24535964853720127,0.09157219657676098,2.785643185426214,-2.3493783195462354,-0.1759285276695755
0.4000000000000002,1.0077632649914168,1.7145319220499937,0.7685271150127848,4.256402105925299,6.5463634625377045,3.3490406631664325,0.10177612714055753,0.22213521081505688,0.08801016104675072,2.7036702607228227,-2.3380770737366063,-0.10378548193860322
0.4100000000000002,1.0504685538430143,1.7799852985170201,0.8022163576694308,4.28413126304165,6.5436047202819845,3.388854802003604,0.12769028406598304,0.19907697367411745,0.08459016496473808,2.622495524866704,-2.3193485536330916,-0.0325553238568527
0.4200000000000002,1.0934355402431284,1.8453918117824193,0.8362944973989578,4.308747952768781,6.537026058432223,3.426791590092,0.15290053271530932,0.17623206297315636,0.08132740968290245,2.5416248355301403,-2.2939408642818346,0.03683888114589072
0.4300000000000002,1.1366338138795176,1.9107144755845065,0.8707430572706096,4.330397207238053,6.526868680858541,3.462912719177687,0.17739673816025991,0.1536414082424452,0.07823171012026929,2.4595927254618126,-2.262704053659057,0.10366752200709492
0.4400000000000002,1.1800344102256644,1.9759186172841077,0.9055441740069878,4.349222772312559,6.513354103903351,3.4972791916928485,0.20116981610924314,0.13133938418280913,0.0753085361048515,2.37834677951065,-2.226541151141826,0.16734596654547834
0.45000000000000023,1.2236097921990408,2.04097168535747,0.9406805894396464,4.3653660565859616,6.496684878633083,3.529950929872475,0.22421935008555768,0.10935464416194553,0.07255960679014795,2.297843764107953,-2.186197927472194,0.22744024208113392
0.46000000000000024,1.2673338235351657,2.105843066975743,0.9761356394692622,4.378965674701873,6.477046294275487,3.560986733679227,0.24654404737380164,0.08771841992675541,0.06998374427243718,2.2180284047913124,-2.1409840233667063,0.28330483882248503
0.47000000000000025,1.3111817480304926,2.170503929652641,1.011893242634596,4.390159738834249,6.4546099737729605,3.590444381039027,0.268111172449343,0.06650411577134142,0.06757826734660509,2.1326703876252324,-2.0840013769897676,0.3327056343347944
0.48000000000000026,1.3551302165342858,2.234927125094571,1.0479378921413056,4.39909212406807,6.429542065131397,3.6183812966135647,0.2888495520870969,0.04582304881109042,0.0653399146081132,2.040304933954135,-2.01554373055783,0.3746469119592396
0.49000000000000027,1.3991573520132554,2.299087163423788,1.0842546522717587,4.405912776137107,6.402008646789769,3.644854634781097,0.30866165875728085,0.02577136313694055,0.0632635816330927,1.9371105534228383,-1.9391660844799694,0.40918861969405695
0.5000000000000002,1.4432427891955513,2.362960241849921,1.1208291570929434,4.410772684964867,6.372181739664627,3.6699216214083186,0.32741404638108934,0.006391288146454323,0.06134223566502904,1.8196555187643824,-1.8625233674574795,0.43803602018866533
0.5100000000000002,1.4873676444882546,2.4265243339526625,1.1576476102135707,4.413815894904732,6.3402450716893775,3.6936392113001704,0.3449468266923086,-0.012326828638366094,0.05956718048296138,1.6859414852578063,-1.7885853801901688,0.46198023148461165
0.5200000000000002,1.5315144237064269,2.489759328005852,1.1946967806053843,4.415175748425589,6.306397969254647,3.7160635751733566,0.36109278780208715,-0.030409766709516117,0.057929134706456456,1.536334050909929,-1.7181775753961959,0.4813070026608267
0.5300000000000002,1.5756669113204786,2.5526471894464957,1.231963992809546,4.414974480459138,6.27085616511117,3.737249463787562,0.37570227049406296,-0.04788762451344715,0.05641863091911344,1.3738119690755146,-1.6515510842089007,0.496202542011233
0.5400000000000003,1.6198100625890077,2.6151721134848946,1.269437110203262,4.4133239895691405,6.233849067355343,3.757249445247268,0.38866632447220223,-0.0647901296630365,0.05502614014269246,1.20338050862157,-1.5887522815075592,0.5068804505656104
0.5500000000000003,1.6639299055617578,2.6773206346932343,1.3071045107099117,4.410326989184469,6.195614074242711,3.776113210464283,0.39993137446111493,-0.08114547551415116,0.0537421840056435,1.0309623877718002,-1.5297116743463597,0.5136200202154003
0.5600000000000003,1.7080134551817534,2.739081670515145,1.3449550561678292,4.406078253780805,6.156389271968638,3.7938871035503765,0.4095027303557023,-0.09697986102659541,0.05255748263562864,0.8622777438261804,-1.4742714513211317,0.5167653803918092
0.5700000000000003,1.752048628880607,2.800446491057023,1.3829780573649981,4.400661506061727,6.116406334859836,3.810613715628095,0.4174246291632194,-0.11242633414505855,0.05146264027102569,0.6992920173890953,-1.4421919415977331,0.5253965892495449
0.5800000000000003,1.7960240234239246,2.8614086272454697,1.4211632314784268,4.394120492877753,6.075885379193785,3.8263302095987966,0.423744430347469,-0.12806054679443712,0.05044696545899352,0.540538742218228,-1.4943810005331342,0.5676155290642066
0.5900000000000003,1.8399282571015576,2.921963724617435,1.4595006427112216,4.386414856589704,6.0350288160537655,3.8410675411485613,0.42853564646229975,-0.14453008257195543,0.04950055477454463,0.39230071408570455,-1.582339074083401,0.6236313773062889
0.6000000000000003,1.8837492838032448,2.982109332927038,1.4979806562564053,4.377464873152462,5.994014302895778,3.854855278548698,0.4319519695334154,-0.1618360466059456,0.048618492042315636,0.2642782280417253,-1.6360678900261698,0.661911803067895
0.6100000000000003,1.927474356562932,3.0418446424565313,1.5365939268071396,4.36721362686983,5.952992140131999,3.8677220072648613,0.4341691020401064,-0.1797946632963639,0.0477972616579172,0.15145890557343328,-1.6919598067909472,0.6987665280274186
0.6200000000000003,1.9710902104857162,3.101170220539254,1.575331379112437,4.355610687985355,5.912087903757051,3.879692788183685,0.4353351993131396,-0.198418000366648,0.04703238313648838,0.053231124519557235,-1.7494626291636555,0.7340206382930982
0.6300000000000003,2.0145830690906714,3.1600877683545425,1.6141841810111401,4.342604344012756,5.871403051169633,3.8907911922978062,0.43559024786782335,-0.21770995198762044,0.046319603333294074,-0.031446461273323706,-1.807652990001648,0.7673431013322739
0.6400000000000003,2.057938634370789,3.218599889319381,1.6531437284833241,4.3281422177272555,5.831016884585037,3.901039372498988,0.43506283064703083,-0.23766320753898884,0.04565490083651218,-0.10383043552723926,-1.865395667125237,0.7983168267078434
0.6500000000000004,2.1011420838844943,3.2767098785063045,1.6922016331542609,4.3121720317084,5.790988755870699,3.91045845833007,0.4338687810441222,-0.2582574472239827,0.04503447478841759,-0.1652300497488173,-1.921411966197327,0.8264720607588179
0.6600000000000004,2.1441780762052205,3.334421535166934,1.7313497133233302,4.294642501614298,5.751360458250087,3.919068848405895,0.43211117083171297,-0.27945837102268306,0.044454728094420116,-0.21690342470086169,-1.9743644747051783,0.8513294328283364
0.6700000000000004,2.1870307656113916,3.391738999149402,1.7705799877957682,4.2755042755876485,5.712158598227188,3.9268904641420734,0.4298811732393014,-0.30121767356270074,0.04391220598986763,-0.2599892625846185,-2.022948276243449,0.872436480284967
0.6800000000000004,2.2296838261127,3.4486666103971153,1.8098846720739625,4.254710850008806,5.673396829964618,3.9339429558498504,0.4272595038698224,-0.3234739096509319,0.04340364282192658,-0.2954540578007131,-2.0659537394278065,0.8894308088128775
0.6900000000000004,2.272120484325839,3.505208789693637,1.8492561764439426,4.232219416661543,5.635077865240234,3.9402458666195304,0.4243182080731831,-0.346153928565255,0.042925990134714584,-0.32407636734298706,-2.1023105857176603,0.9020243019839133
0.7000000000000004,2.314323560452994,3.561369938176275,1.8886871055743766,4.207991646084603,5.597195216554782,3.9458187693235347,0.42112262617215435,-0.3691738494784049,0.04247634029522174,-0.346433770992634,-2.130970908032192,0.9099640797598603
0.7100000000000004,2.356275517547631,3.617154352935468,1.9281702595290535,4.181994627511718,5.559734674102519,3.950681436391984,0.41773340895462124,-0.39243625990933884,0.042051909254308746,-0.3629042965424187,-2.150333514826151,0.9127752607410683
0.7200000000000004,2.3979585241089105,3.672566156564399,1.9676986370645855,4.154202799888174,5.522675628662669,3.9548542260765007,0.4142085279597849,-0.41581488521503307,0.04164998115073005,-0.37367192188419085,-2.156527266115496,0.9090112486912675
0.7300000000000004,2.4393545465000392,3.7276092408682286,2.0072654431396666,4.124601785722044,5.485992563054413,3.958358482933163,0.4106056818849703,-0.4391509647350436,0.04126785758071014,-0.3786245173574339,-2.1472517071994734,0.8979914465952509
0.7400000000000004,2.4804467529903507,3.7822886259260295,2.0468612619067956,4.093444764201051,5.449934104578648,3.960646932039088,0.4070978831924767,-0.4625526522593467,0.040902803125828155,-0.3546977666125874,-2.173447335564298,0.9023024735503603
0.7500000000000004,2.521217875992274,3.8366084959225586,2.0864775574328664,4.060390357522474,5.414087183973702,3.9624437918756636,0.4037547875769978,-0.4858459385549176,0.040552227122341716,-0.3460815485574006,-2.1321470451952007,0.8777971068841437
0.7600000000000005,2.561649216411167,3.89057097967257,2.1261090176848922,4.025499996259255,5.378454911853767,3.9636736421603107,0.40056403218328174,-0.5086387848980501,0.04021404624018347,-0.324490894457482,-2.08599088228372,0.8517079251141776
0.7700000000000005,2.601722593383303,3.9441780001312776,2.1657500417923914,3.9888104461294023,5.3429896583104775,3.964350100412655,0.39768970710456975,-0.5309016132314952,0.03988584066102302,-0.28314050719081163,-2.038743733375793,0.8260137430245184
0.7800000000000005,2.641420227998768,3.9974309263266816,2.205395112986826,3.9503651202312002,5.307627871103891,3.9644761185103445,0.39531506064598626,-0.5526295669701953,0.039565265126467186,-0.22501412628134462,-1.990923013601106,0.8013868294226015
0.7900000000000005,2.6807247671927708,4.050330384182956,2.245038758572787,3.9102054356355245,5.272285601957427,3.964057956668234,0.39355848699483637,-0.5738234261325746,0.03925093302081317,-0.16002529600981566,-1.9428029742614212,0.7782556304602941
0.8000000000000005,2.7196192635676817,4.102876102880352,2.284675575240678,3.8683707749448746,5.236868633174934,3.963103620986273,0.3924706878140378,-0.5944874725668058,0.03894252432814863,-0.09170376698858317,-1.8946355070987926,0.7567711074340195
