time,x,y,z,vx,vy,vz,phi,theta,psi,p,q,r
0.01,0.00015731127471919196,0.00012504234825468644,0.0020759381362818823,0.04409815807001514,0.04356911403058289,0.4123387627695993,-0.2102378860596599,0.14129109052700503,-0.011702013536609936,-41.75388150308896,28.395985416139226,0.6421147302257876
0.02,0.0011778809999480357,0.0013045441678280459,0.007562310958891408,0.17483766650755897,0.21633059573593513,0.6704865401444284,-0.5812659198041517,0.4054150267556843,-0.042106147711282516,-31.49479783919106,21.24277953253271,14.390918377262018
0.03,0.004140566611324578,0.005228813380497604,0.015638795794575267,0.4275211195449188,0.5832563190010491,0.9253250616174791,-0.7885231454926489,0.643729668501553,-0.04576123515263484,-9.48912540189178,16.036389101460912,15.818653112854662
0.04,0.010313441235909486,0.013710623248705478,0.026217950035009263,0.8183261116375518,1.1150721894730924,1.1767051373515407,-0.8182352626424841,0.8471787362198283,-0.04598970048135663,3.686789092093651,12.250540744973812,13.732230382009746
0.05,0.02111949930949627,0.02794151594862302,0.03928357092696323,1.354982897244692,1.723608969478126,1.4318447612414005,-0.7505575324551911,0.959061668914538,-0.04296855984695128,9.637264964543913,3.079326280149667,2.5262630777785002
0.060000000000000005,0.037672801886138946,0.04804290280467134,0.05491611313472869,1.963149937589069,2.284598332353237,1.7004702148160349,-0.6518323486464696,0.9568261284505788,-0.04738143513634986,10.828738113155723,-3.280239816742464,-3.0918874753273426
0.07,0.06009093818093064,0.07306247783027117,0.07318981521671578,2.523659144904638,2.707712341337091,1.9623722612904475,-0.5508197019325587,0.914204738090391,-0.053788158891723455,10.410219433853953,-3.2962433162515166,-2.3577304811679167
0.08,0.08780906878629156,0.10171566327291894,0.09402126004041494,3.0218052909987154,3.0130918908598243,2.209503564626399,-0.4551052252945336,0.8833024250868622,-0.05757970712323108,9.335830904892287,-1.8520664635886785,-1.0557793268794406
0.09,0.12031875556813501,0.13301202714512175,0.11728187895818676,3.481119489401593,3.2380221462842496,2.4463760606436256,-0.36919850983595137,0.8619214790245248,-0.05921765505834508,8.097615215547355,-1.9769263794732164,-0.8450083344658135
0.09999999999999999,0.15722128049395315,0.16623373122455057,0.14283386345860688,3.8993064886056152,3.3996856682749046,2.6671086052536777,-0.29253804708089354,0.8373806931248983,-0.05941199731922963,7.263897011977449,-2.655520714020027,-0.7622509778777152
0.10999999999999999,0.19810922886574736,0.20082288095192324,0.1705209809096465,4.277322023127067,3.512629905090163,2.873146247945405,-0.22187672542332287,0.8062994491836638,-0.05783060474737706,6.637477384401692,-3.408271378590935,-0.599190872301538
0.11999999999999998,0.24257457958867437,0.23634411871949726,0.20019411633747705,4.614208484694265,3.58700115574029,3.0640366307973435,-0.1555374652436215,0.7698605878787498,-0.054234678274046176,6.1231755136537505,-3.8393142496808266,-0.2622365998080845
0.12999999999999998,0.29019612318767596,0.2724516378112375,0.23168376968827345,4.908257489791689,3.630648966247299,3.236093933797182,-0.0923342395618857,0.7297658608523724,-0.04837948502110881,5.722932121952445,-4.217528572554138,0.12774000582330775
0.13999999999999999,0.34056287808126534,0.30887454549398574,0.2648043591270601,5.163064285781263,3.650675715785573,3.3899070996437963,-0.03142132853719758,0.6858951419541688,-0.04026998317223668,5.409464472283434,-4.608989395508795,0.5656419660920671
0.15,0.39329805216257785,0.3454045640422639,0.29937427769177344,5.381825175720115,3.6525370465005773,3.525676250375207,0.02795978164029833,0.6377469508793364,-0.029935442793791976,5.2017819339886175,-5.0158535920783995,1.0537298746940371
0.16,0.4480574614865378,0.3818815445523329,0.33521525333774443,5.567851800044492,3.6404221352120265,3.643848950352142,0.08653269844176933,0.5849858199120913,-0.017446641257455445,5.0853785566098795,-5.393757705022633,1.5966470078833352
0.17,0.504530025362198,0.41818203909819995,0.3721538322843338,5.724445217873539,3.617508105685579,3.7449304875898224,0.14484934030649063,0.5274141458722522,-0.0028909107575820214,5.048201283261922,-5.7491385575236205,2.192239856289092
0.18000000000000002,0.5624374501056386,0.4542102838426488,0.4100221309723199,5.854846303904055,3.5861754934800905,3.8295312810688915,0.20328926496727337,0.46466107224014935,0.01361068843400862,5.077251785379135,-6.099084941564524,2.8435852586288903
0.19000000000000003,0.6215329893283408,0.48989110671909203,0.4486586868588134,5.962111331416175,3.5481727151407174,3.8983249504388433,0.2622496067204496,0.39613039645144044,0.0319119115684286,5.196988933909682,-6.458826104435109,3.55768880689078
0.20000000000000004,0.6815992578864271,0.5251640599816113,0.4879090023572086,6.049046375444388,3.50470310972481,3.952027750771387,0.32222625894606727,0.3209260802720423,0.0518402318087364,5.410543162398618,-6.856030732610319,4.352101799193038
0.21000000000000005,0.7424454418064761,0.5599787086962532,0.527626035341264,6.118140397065493,3.4566416323202964,3.99143889207903,0.381229662500929,0.23721890387598815,0.07323957781662728,5.225250161459495,-7.427142537198976,5.2871828915858785
0.22000000000000006,0.8039034630541375,0.5942940726889826,0.567671057775878,6.171466207858704,3.4050127297940516,4.017423886109101,0.4363855336235427,0.1437047616848494,0.09603456070030851,4.958499876974452,-7.9386793748322315,6.265126349864524
0.23000000000000007,0.8658251949299665,0.628078987629182,0.6079137466485708,6.211017572203109,3.3507140214052624,4.030777080170208,0.48633825637731637,0.042862626174838284,0.12027280580445097,4.591682739133958,-7.959859940825346,7.042681015111928
0.24000000000000007,0.9280836937646857,0.6613101742279239,0.6482320925803138,6.239019003010394,3.2944290543766597,4.032394339678329,0.5295613611111388,-0.062170443403920736,0.1460494423656299,4.1112092001904585,-7.876886552239186,7.687162854389271
0.25000000000000006,0.9905736049822234,0.6939706972209444,0.6885131447414127,6.257500622304707,3.2367410450142793,4.023207662794166,0.5644453880217049,-0.16987525354626318,0.17332997975455822,3.5025767535579204,-7.694533059635229,8.154739591414529
0.26000000000000006,1.0532084191681916,0.7260493626741924,0.728653290402221,6.268187716420542,3.178222210274583,4.004157532580329,0.5890221240021283,-0.27826461275400927,0.20211289161812984,2.6934471926584407,-7.41157671337068,8.381569339005344
0.2700000000000001,1.1159174192413563,0.7575411301828608,0.7685583147868031,6.272499767467458,3.1195279653612187,3.976178057599685,0.6015310707601659,-0.38506895001991887,0.23234731991354932,1.7753238436467962,-7.066450199399174,8.341599175858018
0.2800000000000001,1.1786426614198529,0.7884478363745054,0.8081431189236636,6.271565037486573,3.0613623106935,3.9401376032387745,0.6014364041431352,-0.48831300122661636,0.26391543800185957,0.8716996821518549,-6.7190017592563205,8.070703296814369
0.2900000000000001,1.2413361442695594,0.8187779862325137,0.8473310216921179,6.266245415613845,3.004343871834771,3.896829521996661,0.5894200415395245,-0.586654903738681,0.2965993742220217,0.06593634937160164,-6.412848196273814,7.618741939422117
0.3000000000000001,1.3039572836708857,0.8485453187031445,0.8860530155730602,6.257171217113124,2.948899767885369,3.846983000060618,0.5668823467091685,-0.67921105713774,0.3300901977014074,-0.6182249547226064,-6.1350158383314515,7.027995508475305
0.3100000000000001,1.366470834765171,0.8777667456452907,0.9242471816839635,6.24479078938005,2.8952439201736837,3.791286763767491,0.5354128930766789,-0.7651169351838003,0.3640408698404891,-1.1952692286686015,-5.829203746468385,6.316475765728743
0.3200000000000001,1.4288453807809036,0.9064605226914297,0.9618583207399964,6.229428385238467,2.843438509532797,3.7304016360938976,0.4965814745683365,-0.8434408088928995,0.3980606606997438,-1.6786267074617334,-5.461591853986545,5.523232369169614
0.3300000000000001,1.4910523558658526,0.9346451390849881,0.9988376824333831,6.211335015995545,2.793473036168182,3.664963855028126,0.45199397886721276,-0.9131300173405354,0.4317179885172683,-2.0672336400778573,-4.968061429959058,4.670821582639158
0.34000000000000014,1.553065645411436,0.9623389990010761,1.035142739073192,6.190751693110632,2.7453415157884873,3.595584747262163,0.40339748039212814,-0.9733960744796579,0.4645642195237011,-2.342747038011786,-4.392477016691684,3.842678921304413
0.35000000000000014,1.6148616907167606,0.9895606259012377,1.070736919708578,6.167953273241606,2.6990741977529313,3.522851754471656,0.35270730382724325,-1.0231997911424804,0.4961383077028266,-2.4949952328776517,-3.595013007145857,3.017692344362219
0.36000000000000015,1.6764203962933635,1.0163294619814685,1.1055894399976605,6.143356777885832,2.654821487001971,3.4473329956363803,0.3019033214269993,-1.061986683544178,0.5260167023449648,-2.509718244387616,-2.7764289438854255,2.3315972536911365
0.37000000000000016,1.737726534559926,1.0426669157725947,1.1396748151238434,6.117508537525327,2.6128188990788717,3.369496656113359,0.25263867226381265,-1.0913607419741496,0.5540765474423488,-2.405395072168126,-2.1413712658722046,1.8386449977089205
0.38000000000000017,1.7987699191944353,1.068595960970868,1.1729719788855313,6.090865151750669,2.5731433256728202,3.2897441584298903,0.20604218498866697,-1.1139023926525935,0.5804216987930452,-2.2133626938279543,-1.70578707448581,1.502755907063606
0.3900000000000002,1.8595439187751304,1.0941391158410085,1.2054637408090119,6.063682906489663,2.5356335014708096,3.208455836900788,0.16272985110541335,-1.1313607806625658,0.6052279594305806,-1.9787488101405055,-1.3308206674206744,1.251496892405558
0.4000000000000002,1.9200438319713682,1.1193166927966314,1.2371366437978477,6.036095649181131,2.5000172087172765,3.1260122974841065,0.12299906229148949,-1.1440746436359888,0.6285970611898865,-1.7256767802869883,-0.9056388191001892,1.0528673226848557
0.4100000000000002,1.980266388735544,1.1441465090733292,1.2679809190750597,6.008257063969213,2.4660703736539307,3.0427746989370874,0.08694753780915784,-1.1519263142383884,0.6506422012986937,-1.4641285604599075,-0.4658793511515112,0.9116691622461927
0.4200000000000002,2.0402100795586535,1.1686444879716527,1.2979902256154077,5.98036331805528,2.433637325124222,2.9590599464336886,0.054491208720754906,-1.1553839797248504,0.6715563975391557,-1.2030844769540745,-0.10394498697827936,0.828309021706331
0.4300000000000002,2.0998751096118555,1.1928249117173708,1.327161229362773,5.952559654193069,2.4025452632242454,2.8751470334986315,0.02540896264875058,-1.1553411495685082,0.6915669017709845,-0.951724474883889,0.17703817195376398,0.78576726648766
0.4400000000000002,2.1592626605156835,1.2167000732143365,1.355493296109245,5.924897744464331,2.372571093298186,2.791300697707239,-0.0005606481797261094,-1.1523105749350537,0.7108555402650178,-0.715030743725921,0.44834019660014846,0.7694194404128664
0.45000000000000023,2.218374285305416,1.240280083242633,1.3829883622752044,5.897401430647164,2.3435045546245235,2.7077754761200943,-0.02380625866609661,-1.1463051013228631,0.729556051479596,-0.5213513209218978,0.7338403225264755,0.7757155563646008
0.46000000000000024,2.27721189984912,1.2635732851890742,1.409650788635017,5.870119595746284,2.3152022560145133,2.624800390122556,-0.04472279570774254,-1.1374301100483062,0.7477960205492643,-0.3444989376512697,0.9879261109353137,0.8018079555551169
0.47000000000000025,2.335777929720517,1.2865867624939122,1.4354870896067806,5.843105232691877,2.2875534820444616,2.5425731965175227,-0.06359920717528156,-1.1261476752031259,0.7657051849424089,-0.1887154502482143,1.1826329275682996,0.8408875217764501
0.48000000000000026,2.3940751533971203,1.3093264658749737,1.4605056501242213,5.816375850123651,2.260442547293747,2.461270071603684,-0.0807375661080949,-1.1129398137516258,0.7833901884619612,-0.05615275773339187,1.3406579601198747,0.8883208578153152
0.49000000000000027,2.4521064027172,1.3317972116123575,1.4847165265614546,5.789925495150134,2.2337590366847384,2.3810515631471256,-0.09642385338723056,-1.0980598471649656,0.8009264751686912,0.053108804671649315,1.4842834822816213,0.942679281387084
0.5000000000000002,2.5098744796803616,1.3540028583274408,1.508131276497086,5.763754333754826,2.2074221726707033,2.3020580467208065,-0.11094528052887476,-1.0816884360339938,0.8183703848033813,0.1354436910805465,1.605227470219782,1.0016088599503505
0.5100000000000002,2.5673822161204463,1.3759466049782896,1.530762747353777,5.737867821497403,2.181380170090309,2.2244059364090836,-0.12456827161330003,-1.0641141159901815,0.835767717534194,0.1967653462406069,1.6899414437582414,1.0616640611115749
0.5200000000000002,2.6246324484484265,1.397631195689563,1.552624848621507,5.712261366123878,2.1555931763650897,2.148190722462626,-0.13751830735049905,-1.0456771037396604,0.853152462639712,0.23743565503536562,1.7416084929682945,1.1207778324537971
0.5300000000000002,2.6816278939224327,1.419059007440042,1.573732359365748,5.686915974803591,2.1300275955412604,2.073491595733554,-0.14999690361094264,-1.0266453201304861,0.8705443642352272,0.2596319685172264,1.7714780239435326,1.1786117716515943
0.5400000000000003,2.7383710375203325,1.4402321305662926,1.5941007776493152,5.661804587756025,2.104659703854036,2.0003740745542418,-0.16217247855558115,-1.0071970458129291,0.8879515902409715,0.26600818818423005,1.7861390018907517,1.2349684823636085
0.5500000000000003,2.794864073002081,1.4611524757752083,1.61374619553303,5.636896281292063,2.079477131969318,1.9288918633713783,-0.17418064590950882,-0.9874669534590739,0.9053740087943003,0.2592457362807528,1.787680103710909,1.289314358211201
0.5600000000000003,2.851107590946113,1.4818219323529591,1.6326837424485505,5.611648476525453,2.0544972714643235,1.858508328788567,-0.20442055735758802,-0.9947317642899709,0.9236849649306058,-3.24462527335961,-3.5854098829070606,0.3991317344589487
0.5700000000000003,2.90707457596759,1.5022347842304884,1.6509222574636813,5.581104842037395,2.0284835222119195,1.788754798406248,-0.2829207434133453,-1.0243840458962572,0.9438710692288629,-9.034901144759761,-2.6873755141320226,0.2950947570188885
0.5800000000000003,2.962682454925007,1.5223852234642228,1.6684717203006252,5.539511842788772,2.002577217491296,1.7206023572658975,-0.4006068480636726,-1.0461008096829711,0.9638602687119903,-11.063054768136825,-2.087142352845997,0.1898464971781414
0.5900000000000003,3.0178066442667357,1.5422889113910274,1.6853464151894306,5.4843470983749745,1.9794568136936224,1.6536985809712128,-0.5261144691529769,-1.062273349755925,0.9834236759970856,-10.636332654968276,-1.6687860194501223,0.09973380121532018
0.6000000000000003,3.0722982744047473,1.5619799872878342,1.7015599944569593,5.413167931710565,1.9601063378883636,1.5883331250163097,-0.6368283653762193,-1.0743134934643035,1.002135919068435,-8.227230004293585,-1.3341714609796331,0.08320068909605265
0.6100000000000003,3.1259922764063837,1.5814965868480981,1.7171287849116534,5.3250699417793,1.9443218126506578,1.5248028991102194,-0.7195893148849286,-1.0830260909954352,1.019919581380189,-5.191108141621404,-1.0786479006376832,0.12900178500000697
0.6200000000000003,3.178724199861957,1.6008689898284347,1.732071945766564,5.2209676390204445,1.9308946951837562,1.4633388799820954,-0.7750125458177047,-1.0890670247124883,1.0368660018600584,-2.8952903959325402,-0.882244160253743,0.20593972917157938
0.6300000000000003,3.230344956770241,1.6201131894461482,1.7464104745051277,5.102999152090295,1.9182906114111904,1.4040317634381143,-0.8083338861395403,-1.0929672394330445,1.0530980252752342,-0.8896301059596268,-0.7326902546171985,0.28972626250645517
0.6400000000000003,3.280730488072518,1.6392289998006986,1.7601674480362812,4.974107816640733,1.9049504615746413,1.3474074090581296,-0.8238575334520987,-1.0815535609114268,1.068285824876859,0.47214359334811973,1.2654762828188388,2.341451292861138
0.6500000000000004,3.329812288635789,1.6582102994770684,1.7733706707417345,4.842359199931806,1.8913161031539976,1.2935459421293005,-0.8314322648263907,-1.0581261898305268,1.0824703863353278,0.5023995265454129,0.9010899459638,2.030863697561749
0.6600000000000004,3.377583233520649,1.6770562847426578,1.7860421585136235,4.711828882575402,1.877850195679019,1.2407323633887435,-0.8432407884803582,-1.0519117352498542,1.0968565955896832,-0.36169572131145,-1.122827953723613,-0.15682376270265053
0.6700000000000004,3.4240178019659084,1.6957612744034505,1.7981929434259512,4.575032601996654,1.863090404243909,1.18924488245595,-0.8568426311619954,-1.0541239907577984,1.1112037909124866,0.13651901970758468,-0.23687162610752965,0.7610983320680313
0.6800000000000004,3.4690474457910927,1.714310210571598,1.8098410379741614,4.431015142626244,1.84660620800914,1.1406608191681966,-0.8609936296312535,-1.0342753056953102,1.1247323734728283,1.36623184849155,1.8053843600420239,3.1313509469006813
0.6900000000000004,3.5126536783827382,1.7326939765497447,1.8210129969091304,4.290425669841645,1.8300323260201126,1.0941953673498674,-0.8605380855342614,-1.0060895695551026,1.1379374812908851,0.9802743483246621,0.8175716727695925,2.045537488830652
0.7000000000000004,3.5548774117722264,1.750912485057096,1.8317243944880106,4.154352504317543,1.8135234586924214,1.0480892522204879,-0.8671089998301763,-1.0008418946553028,1.1513695679283547,-0.03018060114336074,-1.2362183150603183,-0.3074944986862329
0.7100000000000004,3.5957180924130396,1.7689571571920106,1.841980747136191,4.013783797046612,1.795246736915438,1.0030913497991032,-0.8749555539043559,-1.0005250341485885,1.1647848853290603,0.7221235383626483,0.17048789543606535,1.2867818548743462
0.7200000000000004,3.635134655360599,1.786810329505046,1.851797915590436,3.8697282661599837,1.7752209680184057,0.9607662431541503,-0.8728823232789978,-0.9759869807376021,1.1776839087783268,1.8396239745653276,1.8988929736478033,3.385291269193327
0.7300000000000004,3.6731438875320586,1.8044643236539757,1.8611986255257529,3.73236352976972,1.7554152136180854,0.9198900758168669,-0.868140749975593,-0.9465949730032255,1.1905279154197184,1.2207417261326285,0.7587773342498301,2.0591278201182046
0.7400000000000004,3.7098088466179453,1.8219210094788107,1.8701933098952654,3.6007066517453534,1.7357443661156648,0.8791357214477417,-0.8710790636905297,-0.9380330224323603,1.2034390162324895,0.28051708232282213,-0.8178071559866449,0.23097836957030626
0.7500000000000004,3.745149407099345,1.839173784651416,1.8787852264661424,3.46745464384987,1.7146316587365333,0.8392630724986918,-0.8755456190329932,-0.9330866567876601,1.2163214795740904,0.9010212088291906,0.28344088516998944,1.5075502598229356
0.7600000000000005,3.7791538049629,1.8562091288806528,1.8869862939476316,3.333633575874319,1.6922840996024389,0.8013447135771027,-0.8721804771544011,-0.9095191409744958,1.228888243292366,1.7687037196697462,1.5826101474375207,3.080598807747056
0.7700000000000005,3.811850438696724,1.8730228058192584,1.8948132648522193,3.2059479906267696,1.6703222487915559,0.7645373728114988,-0.8663302699738585,-0.8805509777687972,1.2413778211024977,1.353340683795902,0.9596681727545162,2.3541327293593373
0.7800000000000005,3.8433000567373155,1.8896193481640897,1.9022747070227917,3.084120478434353,1.64885533938085,0.7279847280671317,-0.8657250634334965,-0.8638202954447952,1.2538132711358438,0.6740679926004474,-0.013624418423387241,1.2324279884385034
0.7900000000000005,3.873540232689727,1.905998993217511,1.9093741180372572,2.964015956318583,1.626942669967105,0.6920341234262705,-0.8672771576060552,-0.8519170017668202,1.266169593290299,0.8846673437432497,0.3241646744705057,1.6278813506666447
0.8000000000000005,3.9025862811760548,1.922157013458935,1.9161188011817867,2.8453707843954787,1.6045529110049337,0.6571993116494996,-0.8648012259843426,-0.8316712706077906,1.2783359044091551,1.4232515918927242,1.0672480069043393,2.505703317156452
0.8100000000000005,3.93046688859131,1.9380926300555612,1.9225190474662495,2.7309781706007383,1.582484499538226,0.6232442537546473,-0.8594161160826658,-0.8059969820966864,1.290349096349978,1.4086726242904901,1.0284502336742996,2.460990104407825
